Depth (m) SoundSpeed (m/s) temperature (deg-C) salinity (salinity units)

        0 1532.52 23.92514 35.93
        1 1532.76 24.23736 35.48
        2 1532.82 24.30132 35.37
        5 1532.82 24.28219 35.37
       10 1532.84 24.25690 35.37
       20 1532.89 24.20729 35.37
       30 1532.96 24.16317 35.37
       50 1532.59 23.87318 35.37
       75 1530.82 23.00405 35.35
      100 1528.47 21.93729 35.31
      125 1525.05 20.54803 35.18
      150 1520.01 18.72189 34.86
      200 1512.15 15.93117 34.51
      250 1506.09 13.84558 34.28
      300 1500.83 12.06443 34.16
      400 1492.11  9.16725 34.08
      500 1486.83  7.32853 34.08
      600 1483.85  6.13081 34.13
      700 1482.44  5.34346 34.21
      800 1481.83  4.76196 34.29
      900 1482.18  4.41371 34.38
     1000 1482.58  4.09236 34.44
     1100 1483.03  3.79379 34.47
     1200 1483.53  3.50802 34.49
     1300 1484.25  3.27546 34.52
     1400 1484.96  3.04309 34.54
     1500 1485.73  2.82519 34.56
     1750 1488.35  2.45207 34.57
     2000 1491.20  2.11965 34.62
     2500 1497.17  1.50954 34.70
     3000 1504.02  1.09757 34.74
     3500 1511.86  0.88824 34.76
     4000 1520.09  0.75204 34.78